,volume,pressure
0,0.9967833711841977,0.49055978944449335
1,0.995922312458686,0.4970955225380035
2,0.9950664960998438,0.5036283445220174
3,0.9942298143793463,0.5101505409563716
4,0.9934122672971935,0.516662111841066
5,0.9926124957212856,0.5231549759361404
6,0.9918198110484686,0.529627778993457
7,0.991034213278742,0.5360805210130161
8,0.9902285197701148,0.5425856769768256
9,0.9893944786491249,0.5491656368102396
10,0.9885263815609544,0.5558299699123929
11,0.9875937062818813,0.5626074194140033
12,0.9866015010168467,0.569484664078018
13,0.9855449893873295,0.5764845176873339
14,0.9844601301454496,0.5835719258258462
15,0.9833469232912073,0.5907468884935548
16,0.9822093352713421,0.5979853100212899
17,0.9810616231042046,0.6052366036434699
18,0.9799037867897946,0.6125007693600949
19,0.9787371410803882,0.6197272340462106
20,0.9775648258485092,0.6269076263490015
21,0.9763814045657597,0.6340374631598443
22,0.9751691696824991,0.6411401369902034
23,0.9739285871868759,0.6482194346113113
24,0.9726415168259694,0.6552702241529993
25,0.9713038257287012,0.662300369769634
26,0.9699155138950714,0.6693098714612155
27,0.968480353610091,0.6763037330090944
28,0.9670184205801013,0.6832913609011728
29,0.9655293049081204,0.6902720836415271
30,0.9640032985077225,0.6972021647210922
31,0.9624473696276085,0.704083226598227
32,0.9608594687828662,0.710908395173042
33,0.9592630186582052,0.7177073338195542
34,0.9576580192536255,0.7244800425377634
35,0.9560292396602014,0.7312142379981891
36,0.9543689627197078,0.7379131282989455
37,0.9526771884321448,0.7445767134400323
38,0.9509623951929906,0.7512197963603067
39,0.9492365778823619,0.7578568645755008
40,0.9474947314423685,0.7644848439539875
41,0.9457054016729918,0.7710837831627291
42,0.943870400750364,0.7776546709203688
43,0.9419786100113998,0.7841930037554457
44,0.9400447824284623,0.7907115806967548
45,0.9380689180015512,0.797210401744297
46,0.9360195061075816,0.8036564867724383
47,0.9338976503153522,0.8100408902548146
48,0.9317033506248629,0.8163636121914256
49,0.9294328963897467,0.8225878997114673
50,0.9271073217972589,0.8287291920290756
51,0.9247214442227998,0.8347685230419539
52,0.9223065691750134,0.8407098677540816
53,0.9198664720208432,0.8465589107683651
54,0.9173893462336435,0.852284782109703
55,0.9148767859309908,0.8579067096324682
56,0.9123287911128848,0.8634246933366607
57,0.9097089564552299,0.8688583519831119
58,0.9070182527666686,0.8742519040093928
59,0.9042519385182206,0.8796033351720212
60,0.9012950839064242,0.8848713571439457
61,0.8981651634868453,0.89006585922877
62,0.8948199316501644,0.8951599016085814
63,0.8913187879454896,0.9001578691483112
64,0.8876617323728209,0.905059761847959
65,0.8838305137296782,0.9097435456345168
66,0.8798859046370855,0.91416489766366
67,0.8758279050950425,0.9183238179353885
68,0.871698479925138,0.9220699111230519
69,0.8675416520632833,0.9254611495904421
70,0.8633565477816998,0.9284419436374953
71,0.8591602274242658,0.9309183721914772
72,0.8549568201637414,0.9329439065116067
73,0.8507471997279046,0.9343932579498277
74,0.8465375792920676,0.9353872949255377
75,0.8423279588562306,0.9359260174387374
76,0.8381183384203936,0.9358697430457199
77,0.8339087179845568,0.9353358984934501
78,0.82969909754872,0.9343244837819278
79,0.8255162714314177,0.9327107098548536
80,0.821361792926478,0.9306257686971533
81,0.8172574081474937,0.9279670930503441
82,0.8132537933056065,0.9248146369042094
83,0.8093493951069883,0.9211942176412491
84,0.8056133351269887,0.9170113481420126
85,0.8020615346273456,0.91242889615419
86,0.798693993608059,0.9074468616777809
87,0.795588376760533,0.9020321135344016
88,0.7927024539088166,0.8963173020765376
89,0.7900443798455075,0.8902963760920314
90,0.7876359006841986,0.8840583261868582
91,0.7854258548094275,0.8776730301191855
92,0.783450744626154,0.8711379064653144
93,0.7816173725046933,0.8645753835758989
94,0.7799257384450455,0.8579854614509391
95,0.7783938024070973,0.8514077881859072
96,0.7769681699155088,0.8448827690732461
97,0.7756488409702796,0.8384104041129563
98,0.7744221271695502,0.8319506692424201
99,0.7732521085935458,0.8254804958318984
100,0.7721446100941217,0.8189866464842914
101,0.7710873994823819,0.8123947342008746
102,0.7700727102891858,0.8057061889186323
103,0.7690995717058912,0.7988559574876286
104,0.7681382446277474,0.7918152190588397
105,0.7671887290547547,0.7845839736322657
106,0.7662655871165513,0.7771340815917742
107,0.7653707927907105,0.7695288015130586
108,0.7645043460772323,0.761768133396119
109,0.7636513612435973,0.7538455656712351
110,0.7628031010120231,0.7458052158534827
111,0.7619689175057656,0.7376439166557307
112,0.7611750872787504,0.7294641763944332
113,0.7604214161692485,0.7212708354295713
114,0.7597129200219136,0.7130967892984477
115,0.7590327714869413,0.7049813962014458
116,0.7583809705643314,0.6969246561385658
117,0.7577933206768213,0.6889833916382784
118,0.757269925377333,0.6811529728720414
119,0.7568118201950853,0.6734345177059011
120,0.7563866966184539,0.6657607585505162
121,0.7559804714500642,0.6581074004504778
122,0.7555990989829239,0.6504565575490439
123,0.7552389872250553,0.642754712009243
124,0.7549001361764587,0.6350018638310753
125,0.7545579002417284,0.6268864637474107
126,0.7541863717742235,0.6182263554859889
127,0.7537855507739439,0.6090215390468101
128,0.7533637732511004,0.5992713596797612
129,0.7529313653736209,0.5891459466161568
130,0.7524947344785466,0.578599327614839
131,0.7520993144103484,0.5677013584154018
132,0.7517464157606941,0.5564983007064616
133,0.7514910251310979,0.5453293849131221
134,0.7513802073245506,0.534851044843269
135,0.7514139623410521,0.5250632804969018
136,0.7516699085719023,0.5160761485502428
137,0.7521248332356818,0.5076663104230402
138,0.7527787363323908,0.4998337661152942
139,0.7537200659971244,0.4928899681278083
140,0.754895263463849,0.48668107179315273
141,0.7563707320437152,0.4813009016410852
142,0.7581219102780661,0.47632137637378197
143,0.7601423908298613,0.47172236169938475
144,0.7625293665797377,0.46768961323828184
145,0.7652306192243641,0.4641939529603541
146,0.7682461487637406,0.46123538086560156
147,0.7715925410901372,0.45877303201687647
148,0.775165714315434,0.4566111350741665
149,0.7789734349087716,0.4547606252233233
150,0.782941144766402,0.4531315057789298
151,0.7870222450734823,0.4516620400479693
152,0.7912115830764486,0.45035640537078114
153,0.795408553128897,0.44909489927007085
154,0.7996131552308277,0.4478775217458383
155,0.8038227756666646,0.4467519449643278
156,0.8080323961025014,0.44572821890610137
157,0.8122420165383382,0.4448063435711588
158,0.816451636974175,0.4439923423096933
159,0.8206612574100121,0.443255617773026
160,0.8248708778458491,0.4426031820299933
161,0.829080498281686,0.44200187172121885
162,0.8332901187175228,0.44144321816453297
163,0.8374997391533596,0.4409337591825706
164,0.8417093595891965,0.4404552108905275
165,0.8459189800250333,0.4400075732884038
166,0.8501286004608701,0.4396028380301515
167,0.854338220896707,0.43923395917220553
168,0.8585478413325438,0.43890093671456576
169,0.8627574617683806,0.4386160333090142
170,0.8669670822042175,0.4383694591589624
171,0.8711767026400543,0.4381682940827043
172,0.875386323075891,0.4379948554718697
173,0.8795959435117278,0.437848618268164
174,0.8838055639475646,0.43774132853375664
175,0.8880151843834014,0.4376692769858572
176,0.8922248048192382,0.4376324636244656
177,0.8964344252550749,0.4376615281416719
178,0.9006440456909117,0.43775179582491835
179,0.9048536661267486,0.43791109173652965
180,0.9090632865625856,0.43817733016657945
181,0.9132729069984227,0.43853877352158055
182,0.9174825274342595,0.43902888156478515
183,0.9216921478700963,0.43963490469518707
184,0.9259017683059332,0.4403568429127861
185,0.93011138874177,0.4412272328944783
186,0.9343210091776069,0.4422147743909643
187,0.9385306296134437,0.44331946740224426
188,0.9427402500492805,0.4445678189035094
189,0.9469498704851174,0.4459271397815845
190,0.9511594909209542,0.44741661371875463
191,0.955369111356791,0.4490244523094395
192,0.9595787317926278,0.450740014654493
193,0.9639325173118838,0.4530467864993801
194,0.9686052134702181,0.45646552404807755
195,0.9735968202676311,0.4609962273005854
196,0.978878941551328,0.466541737077683
197,0.9843205181545642,0.472645779838604
198,0.9899215500773395,0.4793083555833485
199,0.9955662683890297,0.486123954063387
200,0.9967833711841977,0.49055978944449335
