,volume,pressure
0,0.279064283749296,0.1992927519935273
1,0.27906428374929604,0.20319382502893418
2,0.27906428374929604,0.20709489806434098
3,0.27906428374929604,0.21099597109974777
4,0.27906428374929604,0.21489704413515454
5,0.27906428374929604,0.21879811717056136
6,0.27906428374929604,0.22269919020596818
7,0.27906428374929604,0.22660026324137494
8,0.27906104772048757,0.23048503406360515
9,0.27905172795751904,0.2343391567250634
10,0.27903632446039056,0.23816263122574963
11,0.27901807325791056,0.24197175977884042
12,0.27899656013839164,0.24579829909560386
13,0.2789640962973846,0.24968328883326818
14,0.27892068173488965,0.25362672899183336
15,0.2788695783679457,0.2576112088076268
16,0.2788167275454451,0.26160420070758594
17,0.27873649991922456,0.26573054859280903
18,0.278628895489284,0.26999025246329594
19,0.27849566171118,0.2743748002348809
20,0.2783624279330761,0.27875934800646596
21,0.27820142902779516,0.28333045364786874
22,0.2780069695846342,0.2881263854400775
23,0.2777790496035933,0.2931471433830922
24,0.2775454342118494,0.29820616960709523
25,0.2772886229656062,0.3032951919033432
26,0.2769928758207389,0.30843456474943076
27,0.2766581927772477,0.3136242881453582
28,0.27630776968963194,0.3188343660188803
29,0.2759441436044774,0.324010131615145
30,0.2755440151143629,0.32909103385663924
31,0.27510738421928843,0.33407707274336307
32,0.2746474539167927,0.3390025605525738
33,0.27418255307404704,0.3439079938449121
34,0.27367871633267743,0.3486563334217507
35,0.27313594369268385,0.3532475792830893
36,0.2725592056943162,0.3577017859458004
37,0.2719824676959485,0.3621559926085114
38,0.2713578882476758,0.36656361220373906
39,0.27067977193879517,0.3709190986520208
40,0.2699481187693066,0.3752224519533567
41,0.269210770189115,0.37952025917523036
42,0.2684373075274204,0.38382759964303104
43,0.26760909125828586,0.3881493937417537
44,0.26672612138171137,0.3924856414713984
45,0.2658245119791999,0.3968268095860376
46,0.26489455496432585,0.40115744647096474
47,0.2638979810603998,0.40546333496606857
48,0.26283479026742185,0.409744475071349
49,0.26173333019775447,0.414011398016518
50,0.26061497805770667,0.4182619765260808
51,0.2594084117723389,0.422427200760811
52,0.2581136313416512,0.42650707072070837
53,0.256747528836024,0.43051793084137924
54,0.2553814263303966,0.4345287909620501
55,0.25389300193580777,0.43840120355434686
56,0.2522768191238589,0.442129015394786
57,0.25053287789455014,0.4457122264833675
58,0.24878350013684314,0.4492892843484658
59,0.24693113899833413,0.45270812038491237
60,0.2449364184804812,0.45590823801116387
61,0.24279933858328429,0.4588896372272204
62,0.2406228826875455,0.46181053986173365
63,0.2383928381547378,0.46455878421398367
64,0.23605328640705014,0.4669542051198696
65,0.23360422744448256,0.46899680257939147
66,0.2310992499041039,0.4708592348748125
67,0.22858029271927255,0.47260055872418644
68,0.22600658192700124,0.4738675411598756
69,0.22337811752728992,0.4746601821818801
70,0.22070887916459134,0.47509959023624715
71,0.21803954372102854,0.4755279721722876
72,0.21536564547684575,0.4754381265469889
73,0.21268718443204299,0.47483005336035083
74,0.21000425766748448,0.4737147787306998
75,0.20732133090292593,0.4725995041010487
76,0.2046635480822095,0.47113307186018427
77,0.20203770486583306,0.4692205745456165
78,0.1994438012537966,0.46686201215734513
79,0.19685669330225802,0.4644085423065838
80,0.19430492278530836,0.4617846486958401
81,0.19181703147703866,0.4588526813651288
82,0.1893930193774489,0.4556126403144494
83,0.18699754905195023,0.4522349493037845
84,0.18462974677276428,0.4488059063216133
85,0.1823486377053583,0.44521596049538914
86,0.18015422184973232,0.44146511182511206
87,0.17801883115957348,0.43760471228228826
88,0.1758912069385551,0.43374005722667414
89,0.1738548387299366,0.4298253998957746
90,0.1719097265337181,0.42586074028958953
91,0.17004810388075914,0.42185033392090926
92,0.16818648122780017,0.417839927552229
93,0.16639087356253476,0.41382257686416957
94,0.1646728335078093,0.4097970666008397
95,0.16303236106362384,0.4057633967622394
96,0.16140344124228476,0.40172851166774776
97,0.15980830556170644,0.3976871429501871
98,0.15826792348856816,0.39363526629179024
99,0.15678229502286983,0.3895728816925572
100,0.15531763602385062,0.3855064727755573
101,0.15386520921372757,0.3814275507455004
102,0.1524447220079445,0.3773159555869062
103,0.15105617440650146,0.3731716872997748
104,0.14968733422050218,0.369007258997163
105,0.1483218918647519,0.36483810305272996
106,0.14697926351210158,0.36063720437035446
107,0.14565944916255122,0.35640456295003653
108,0.14435905098585194,0.3521449064335974
109,0.14305865280915264,0.34788524991715825
110,0.14178747597259417,0.34343952925507193
111,0.1405482387403757,0.33879043615471993
112,0.13934094111249723,0.33393797061610236
113,0.13813636174881785,0.3290681967848664
114,0.13698148778763722,0.3240785877134569
115,0.13589961863637653,0.3189129706330425
116,0.13489075429503586,0.3135713455436233
117,0.13390518936111637,0.30817354768537275
118,0.1329665144846322,0.3027043461334087
119,0.13213278402240797,0.29707533631456207
120,0.13140399797444371,0.2912865182288329
121,0.1307332662833041,0.2854092955699347
122,0.13008777561687085,0.2795815384835896
123,0.1295609177665575,0.2739862695882433
124,0.12915269273236413,0.26862348888389603
125,0.12883785948958426,0.26344373079799477
126,0.12852302624680448,0.2582639727120935
127,0.1282796445201165,0.2532346235027347
128,0.1281092676033485,0.248358952928104
129,0.12801189549650047,0.24363696098820145
130,0.1279160766834805,0.23891823880648463
131,0.12788481664519033,0.2342424210858099
132,0.12794024981868007,0.22962421792710586
133,0.1280823762039498,0.22506362933037255
134,0.12824663702626973,0.22051775083456787
135,0.12849011583382192,0.2159551043480674
136,0.12888872986245403,0.21135962054645402
137,0.12944247911216608,0.2067312994297278
138,0.13007214559772573,0.2020869089885846
139,0.1307724869524632,0.19750213383557474
140,0.13172834514192056,0.1931328908781238
141,0.13293972016609776,0.18897918011623177
142,0.134335937155817,0.18498138626176527
143,0.13574263887887583,0.18100495889241283
144,0.1373957318354145,0.17753064392324053
145,0.13929521602543304,0.17455844135424842
146,0.14143060671559185,0.17206698470032242
147,0.14356599740575066,0.16957552804639642
148,0.14581943842684392,0.1673992842115073
149,0.14821888906777708,0.16561290886332164
150,0.15076434932855015,0.16421640200183948
151,0.15333776887822873,0.16289455080802395
152,0.15593740026125624,0.16169411511047482
153,0.1585826596504837,0.1607050323138339
154,0.1612735470459112,0.15992730241810113
155,0.16398385061418974,0.1592395099270101
156,0.16669415418246822,0.15855517265824431
157,0.16940445775074675,0.15788098510505888
158,0.17211476131902526,0.15721694726745375
159,0.1748250648873038,0.15655960392310375
160,0.17753536845558232,0.15590435657759072
161,0.1802456720238608,0.15526881162114542
162,0.18295597559213933,0.15465296905376785
163,0.18566627916041784,0.154054732876621
164,0.1883765827286964,0.1534564966994741
165,0.1910868862969749,0.15288065595232492
166,0.19379718986525338,0.15233048801517302
167,0.19650749343353188,0.1518059928880185
168,0.1992177970018104,0.1512847751408636
169,0.20192810057008886,0.1507868039262644
170,0.20463840413836742,0.15032525227933582
171,0.20734870770664593,0.1499001202000779
172,0.2100590112749245,0.14948816115593483
173,0.212769314843203,0.1490918903455111
174,0.21547961841148155,0.1487344272711298
175,0.21818992197976003,0.14841577193279099
176,0.2209002255480385,0.14812023609677533
177,0.22361052911631704,0.14783547242447947
178,0.22632083268459552,0.14761399521403745
179,0.22903113625287402,0.1474558044654493
180,0.23174143982115258,0.14735012801499525
181,0.2344517433894311,0.14724445156454116
182,0.2371620469577096,0.14727850836988646
183,0.2398723505259881,0.14746182569847197
184,0.2425826540942666,0.14779440355029774
185,0.24529295766254514,0.14813650866956435
186,0.24797442821413979,0.14861799771149084
187,0.2506148335601545,0.14929800324932685
188,0.25321417370058924,0.15017652528307235
189,0.25580128165212784,0.15111417989006753
190,0.2583563529184622,0.1525438352907323
191,0.2608429821754966,0.15502458329605476
192,0.263261169423231,0.15855642390603497
193,0.26564295134686966,0.16264735632700333
194,0.2680119185964267,0.1668574113485407
195,0.27032613223854374,0.17157644475432726
196,0.27258559227322077,0.176804456544363
197,0.2748031133745396,0.18242232411807896
198,0.27702063447585834,0.18804019169179492
199,0.27923815557717707,0.19365805926551086
200,0.279064283749296,0.1992927519935273
