,volume,pressure
0,0.9975980576168834,0.10301455284179298
1,0.998359618164621,0.11158898429257252
2,0.9990426144049451,0.12022930971244591
3,0.9995694916714313,0.12901521347255218
4,0.9998616532963787,0.1380332997042311
5,0.9999823312827056,0.14720857822687036
6,0.9999961944301213,0.156458807974184
7,1.0,0.16568215304308181
8,1.0,0.17489532553095744
9,1.0,0.18410849801883308
10,1.0,0.1933216705067087
11,1.0,0.20253484299458432
12,1.0,0.21174801548245992
13,1.0,0.22096118797033557
14,1.0,0.2301743604582112
15,1.0,0.23938753294608683
16,1.0,0.24860070543396245
17,1.0,0.2578138779218381
18,1.0,0.26702705040971364
19,1.0,0.2762402228975893
20,1.0,0.2854533953854649
21,1.0,0.2946665678733405
22,1.0,0.3038797403612161
23,1.0,0.31309291284909174
24,1.0,0.32230608533696736
25,1.0,0.33151925782484304
26,1.0,0.34073243031271866
27,1.0,0.3499456028005943
28,1.0,0.35915877528846984
29,1.0,0.3683719477763455
30,1.0,0.3775851202642212
31,1.0,0.3867982927520969
32,0.9999895152666605,0.3960190108357856
33,0.9999646625654113,0.4052500691804035
34,0.9999119800164087,0.4145011559583527
35,0.9998389752064887,0.42376686815040887
36,0.9997372344607491,0.4330532608643234
37,0.9996252678639748,0.44234701286304334
38,0.9995153723256378,0.45163927437370144
39,0.9994278701066557,0.46091541998219066
40,0.9993640556185517,0.47017451813347233
41,0.9993256115963067,0.47941535780599626
42,0.9993078781584361,0.4886412925979015
43,0.9993045126884752,0.49785688712887766
44,0.9993045126884752,0.5070700596167532
45,0.9993045126884752,0.516283232104629
46,0.9993072956732505,0.5255204387125021
47,0.9993172626419808,0.53481968688595
48,0.9993151915835434,0.5442916453635661
49,0.9992851935964884,0.5539877359834844
50,0.9991537461062869,0.5640714187083389
51,0.9989216904804288,0.5744833568091492
52,0.9984597473680141,0.5853165128248092
53,0.9978020892332609,0.5963610353517594
54,0.9968404061919482,0.607535200397251
55,0.9956532043029704,0.6186173492306887
56,0.9941884482230869,0.6295433685080916
57,0.9924618326920192,0.6402466753330708
58,0.9904722250996836,0.6507237103669035
59,0.9881711820948171,0.6609541481432804
60,0.9856342649500984,0.6710103698233087
61,0.9827309646236806,0.6808086610803601
62,0.9795369071088179,0.6904189132224935
63,0.975910257262834,0.6997977444574455
64,0.9719128555962592,0.7090342568269505
65,0.967447232921381,0.7180908972907203
66,0.9625182432814128,0.7269204195185603
67,0.9571733592189748,0.7355166244472209
68,0.9514285990766695,0.7436393414601818
69,0.9454307491212507,0.7513250064333765
70,0.939206603671253,0.7582301159955229
71,0.9328943087965114,0.764533335628091
72,0.9265118244569132,0.7700122892910074
73,0.9201185641413826,0.7748731633841512
74,0.9137176344375759,0.7790394755451118
75,0.9073167047337691,0.78258746804916
76,0.9009157750299623,0.7856169104409368
77,0.8945148453261555,0.7880440135790556
78,0.8881139156223489,0.7900355300497781
79,0.8817129859185423,0.7914588021812574
80,0.8753120562147356,0.792509659779985
81,0.868911126510929,0.7930662046348107
82,0.8625101968071223,0.7932205971794457
83,0.8561092671033155,0.7929397079292424
84,0.8497083373995088,0.792217147263504
85,0.8433074076957021,0.7911226293738507
86,0.8369064779918955,0.7895396294279693
87,0.830505548288089,0.7876013767337529
88,0.824104618584282,0.7851541011947061
89,0.8177036888804753,0.7823353130375583
90,0.8113027591766686,0.7790232664874388
91,0.8049079455673098,0.7752560871280414
92,0.7985239079338836,0.7709939992529515
93,0.7921923910480193,0.7661000769745088
94,0.7859194139233011,0.7606652383707505
95,0.779859043891302,0.7543712530194656
96,0.7740274934563525,0.7474495611122345
97,0.7686485340105611,0.7396819183580335
98,0.7637129428718232,0.7314293287989763
99,0.7593904173908574,0.7226267110360229
100,0.755659696858392,0.7135046757533354
101,0.752512238158372,0.7041073786597465
102,0.7499300813309103,0.694084864167618
103,0.747750810090108,0.6833915741543504
104,0.7460133538625315,0.6716296181740548
105,0.7445395692622723,0.6592132703968623
106,0.7433857631905985,0.6459869937357429
107,0.7424326232653402,0.6326952171109673
108,0.7417281074334398,0.6198065010625451
109,0.7412257139609189,0.607917716192623
110,0.7408998134996139,0.5969126044323763
111,0.7407165248279001,0.5867781705890154
112,0.7406226476321651,0.5772608686698925
113,0.7405934262920242,0.5681158161442189
114,0.7405832328012774,0.5589686676197085
115,0.7405832328012774,0.549755495131833
116,0.7405832328012774,0.5405423226439574
117,0.7405832328012774,0.5313291501560818
118,0.7405832328012774,0.5221159776682062
119,0.7405832328012774,0.5129028051803305
120,0.7405832328012774,0.5036896326924549
121,0.7405832328012774,0.49447646020457925
122,0.7405832328012774,0.48526328771670363
123,0.7405832328012774,0.476050115228828
124,0.7405832328012774,0.4668369427409524
125,0.7405832328012774,0.4576237702530768
126,0.7405832328012774,0.4484105977652012
127,0.7405832328012774,0.43919742527732564
128,0.7405832328012774,0.42998425278944996
129,0.7405832328012774,0.4207710803015744
130,0.7405832328012774,0.4115579078136987
131,0.7405832328012774,0.40234473532582304
132,0.7405832328012774,0.3931315628379474
133,0.7405832328012774,0.3839183903500717
134,0.7405832328012774,0.3747052178621961
135,0.7405832328012774,0.36549204537432056
136,0.7405832328012774,0.356278872886445
137,0.7405832328012774,0.34706570039856943
138,0.7405832328012774,0.33785252791069376
139,0.7405832328012774,0.32863935542281814
140,0.7405832328012774,0.3194261829349425
141,0.7405832328012774,0.3102130104470668
142,0.7405832328012774,0.30099983795919116
143,0.7405832328012774,0.2917866654713155
144,0.7405832328012774,0.28257349298343987
145,0.7405832328012774,0.27336032049556425
146,0.7405832328012774,0.2641471480076887
147,0.7405832328012774,0.25493397551981317
148,0.7405832328012774,0.2457208030319375
149,0.7405832328012774,0.23650763054406182
150,0.7405832328012774,0.22729445805618617
151,0.7405832328012774,0.21808128556831052
152,0.7405832328012774,0.2088681130804349
153,0.7405832328012774,0.19965494059255928
154,0.7405832328012774,0.1903336844313228
155,0.7405846890142413,0.18087545474608901
156,0.7406400251068669,0.17109538443943542
157,0.7407997231285668,0.16103517118519475
158,0.7412273643356112,0.15050667368170065
159,0.7420703174799397,0.13977816707706456
160,0.7435308990826601,0.1290215740880128
161,0.7458215220747632,0.11881474253936883
162,0.7489468463377329,0.10926970674472551
163,0.7530783166778443,0.10113292175656313
164,0.7579262437961596,0.09423512614152721
165,0.7635284892297381,0.08909493987851719
166,0.7694811965832784,0.08500718638911826
167,0.7757516496055259,0.08217671145057648
168,0.7820975344592999,0.08002612454690562
169,0.7884984641631065,0.07855817588264023
170,0.7948993938669133,0.07751645175763268
171,0.8013003235707201,0.07682874818770447
172,0.8077012532745267,0.0764637141114635
173,0.8141021829783333,0.07630435468473593
174,0.82050311268214,0.07636496080868309
175,0.8269040423859468,0.07655582373308177
176,0.8333049720897536,0.07691850775002065
177,0.8397059017935603,0.07741769845485227
178,0.846106831497367,0.0780660480587381
179,0.8525077612011736,0.0788213571184267
180,0.8589086909049806,0.07964884475624731
181,0.8653096206087871,0.0804995027084841
182,0.8717105503125938,0.08134521918467491
183,0.8781114800164005,0.08214440448668452
184,0.8845124097202073,0.08289091035125776
185,0.8909133394240141,0.08356359894769919
186,0.8973142691278206,0.08417912393949539
187,0.9037151988316272,0.08473814588385566
188,0.910116128535434,0.0852718252968232
189,0.9165170582392408,0.08579780667769854
190,0.9229179879430476,0.0863484573297341
191,0.9293189176468543,0.08692359941060429
192,0.9357198473506608,0.08753822248774944
193,0.9421207770544675,0.0881732974323343
194,0.9485217067582742,0.08882473387087095
195,0.9555267383200534,0.0898933672334726
196,0.9635633899777548,0.09167444457409292
197,0.973040592219852,0.09444758145313681
198,0.9834611227478596,0.09786866228619057
199,0.9943440235440846,0.10160589934947487
200,0.9975980576168834,0.10301455284179298
