,volume,pressure
0,0.2950315132763845,0.12189914773701195
1,0.2950541428258424,0.1250190629658608
2,0.2950767723753003,0.12813897819470962
3,0.2950994019247582,0.1312588934235584
4,0.29512203147421606,0.1343788086524072
5,0.2951430980217594,0.13749534932312843
6,0.2951616501749186,0.14060646135686186
7,0.29517768793369353,0.14371214475360747
8,0.29519277429999885,0.14681577407149285
9,0.2952078606663041,0.14991940338937823
10,0.2952217238137198,0.15302039174872897
11,0.295230558172367,0.1561105228341041
12,0.29523436374224576,0.15918979664550367
13,0.29523436374224576,0.1622608541414622
14,0.29523436374224576,0.16533191163742078
15,0.29523436374224576,0.16840296913337932
16,0.29523436374224576,0.17147402662933786
17,0.29523436374224576,0.1745450841252964
18,0.29523436374224576,0.17761614162125494
19,0.29523436374224576,0.18068719911721348
20,0.29523436374224576,0.18375825661317202
21,0.29523436374224576,0.18682931410913056
22,0.29523436374224576,0.1899003716050891
23,0.29523436374224576,0.19297142910104764
24,0.29523436374224576,0.19604248659700618
25,0.29523436374224576,0.19911354409296475
26,0.29523371653648406,0.20218376318938847
27,0.2952270826774267,0.20524622709011536
28,0.29521446216507347,0.20830093579514536
29,0.29519650220518623,0.21134872770401336
30,0.29517854224529905,0.21439651961288128
31,0.2951605822854118,0.2174443115217492
32,0.29513213759218504,0.2204933610299194
33,0.29508932493104845,0.22354413391491104
34,0.2950321443020021,0.2265966301767242
35,0.2949710804383855,0.2296495922160568
36,0.29491001657476895,0.23270255425538927
37,0.2948386038910228,0.23575491078394667
38,0.29473773687306154,0.23880554393568248
39,0.2946074155208853,0.24185445371059688
40,0.2944579886546236,0.24490224561946478
41,0.2943085617883619,0.24795003752833272
42,0.2941591349221002,0.2509978294372006
43,0.29397883634100536,0.254051629876068
44,0.29376680849744297,0.25711160574854575
45,0.2935230513914132,0.260177757054634
46,0.2932784367377493,0.26324407526433335
47,0.29303382208408524,0.2663103934740326
48,0.29275961163551834,0.26939804030173864
49,0.2924356264409782,0.27252155798700123
50,0.29206186650046484,0.27568094652982045
51,0.2916679276088814,0.2788548773121896
52,0.2912739887172979,0.28202880809455877
53,0.2908628859289141,0.28520662035625566
54,0.2903724001178287,0.2884023844598435
55,0.2898025312840419,0.2916161004053222
56,0.2891704433243538,0.29484388671336403
57,0.28853835536466577,0.2980716730214059
58,0.28790626740497766,0.3012994593294477
59,0.28720180797243644,0.3045268502810952
60,0.28641096968519947,0.3077537693557558
61,0.2855337525432669,0.31098021655342956
62,0.28464252801949175,0.3142065872305109
63,0.28375130349571653,0.31743295790759224
64,0.28281733245381124,0.32058695781398755
65,0.28179032487244615,0.32358344486653673
66,0.2806702807516213,0.32642241906523983
67,0.2794999466094669,0.32917625118078303
68,0.27832961246731247,0.3319300832963261
69,0.27715339522478416,0.33466555107458434
70,0.27590461974431146,0.33717452535966197
71,0.2745832860258944,0.3394570061515592
72,0.27319527716990677,0.34153135778756083
73,0.2718072683139192,0.3436057094235625
74,0.2704192594579316,0.34568006105956406
75,0.26895618860228154,0.34749286218518516
76,0.26738629874711173,0.34893345681526455
77,0.26570958989242216,0.35000184494980224
78,0.2640011240378754,0.3509595770991791
79,0.26229265818332864,0.3519173092485558
80,0.2605624931553868,0.3527428113573105
81,0.25876542234281014,0.3531606041741473
82,0.25690144574559864,0.3531706876990661
83,0.25499226253714735,0.3529052919726892
84,0.2530830793286961,0.3526398962463122
85,0.25117389612024493,0.3523745005199352
86,0.24926641182691814,0.3516913231775617
87,0.24736072352958005,0.350566490983992
88,0.24545683122823075,0.34900000393922603
89,0.24355303600774564,0.34740964365926036
90,0.24164924078726058,0.3458192833792946
91,0.2398089364519984,0.3440387929276548
92,0.23808049700974815,0.34192331122116104
93,0.23646392246050968,0.3394728382598131
94,0.2348957219190602,0.336877504215285
95,0.23332752137761067,0.33428217017075695
96,0.23178666776884593,0.3316471080166
97,0.23039036223284393,0.3288020544258339
98,0.22913860476960457,0.3257470093984584
99,0.22800404844644306,0.3225217010441024
100,0.22686949212328159,0.31929639268974647
101,0.2257349358001201,0.3160710843353905
102,0.22470911004492447,0.3127432843599821
103,0.22381738532355344,0.3092890780519423
104,0.22305976163600705,0.3057084654112712
105,0.22232750841431936,0.3021039380590213
106,0.22159525519263168,0.29849941070677133
107,0.2209007248210546,0.2947852321482544
108,0.22029342854035833,0.29081748517524536
109,0.2197733663505429,0.28659616978774416
110,0.21930281540149765,0.2822309371920177
111,0.21883226445245238,0.27786570459629123
112,0.21836545805102836,0.273489567673554
113,0.21796792578059798,0.2689117007011183
114,0.2176396676411611,0.2641321036789842
115,0.2173769390850966,0.25916168093416236
116,0.21711421052903204,0.2541912581893406
117,0.21685148197296752,0.24922083544451876
118,0.2166162596617753,0.24417720245460484
119,0.21642174659299418,0.23902521830195478
120,0.21626794276662403,0.23376488298656856
121,0.21612734193779262,0.22846940675353813
122,0.2159867411089612,0.2231739305205077
123,0.21585559873004723,0.21796180473096394
124,0.21575627113721924,0.2130300395240572
125,0.21568875833047713,0.20837863489978753
126,0.21564360185990356,0.2039242404146682
127,0.21559844538932993,0.19946984592954886
128,0.21555328891875633,0.1950154514444295
129,0.2155175631607104,0.1907971200402983
130,0.21549210023688573,0.18683568081253665
131,0.21547690014728232,0.18313113376114445
132,0.21546253217937256,0.17944741580513357
133,0.2154481642114628,0.17576369784912269
134,0.21543638506659984,0.17219036916519329
135,0.21542939524437343,0.16882126063461472
136,0.2154271947447836,0.16565637225738689
137,0.2154271947447836,0.16258531476142835
138,0.2154271947447836,0.15951425726546983
139,0.215426495762561,0.15644210985011603
140,0.21542148638996544,0.15336324126515832
141,0.21541216662699691,0.15027765151059666
142,0.21539923545587814,0.14718643050582625
143,0.2153863042847593,0.14409520950105587
144,0.21537337311364052,0.14100398849628548
145,0.2153764677528826,0.1378920074291881
146,0.21540000911568863,0.13475353938601836
147,0.2154439972020586,0.13158858436677623
148,0.21549240620163151,0.12841790243378873
149,0.21554081520120447,0.12524722050080125
150,0.2156299981637646,0.12208828886432413
151,0.21581975690169325,0.1189583412925727
152,0.21611009141499032,0.11585737778554692
153,0.21646022774066864,0.1127736480467364
154,0.21681036406634696,0.10968991830792585
155,0.21716558742931227,0.10660996263732422
156,0.21770903117189566,0.10366964749045221
157,0.21844069529409718,0.10086897286730984
158,0.2193554927586298,0.09820416469968815
159,0.22027029022316244,0.09553935653206644
160,0.22118508768769507,0.09287454836444474
161,0.2222411154064428,0.09039790988486066
162,0.22351487310043866,0.08821136634100121
163,0.22500636076968272,0.08631491773286641
164,0.22657434815995997,0.08452039437241864
165,0.22814233555023722,0.08272587101197086
166,0.2297472136689314,0.08101558986740577
167,0.23148858748276852,0.07961700492160659
168,0.23336645699174854,0.07853011617457334
169,0.2353439314674545,0.0776706814104233
170,0.23732140594316045,0.07681124664627328
171,0.23929888041886638,0.07595181188212327
172,0.2413237691886746,0.07530792963836937
173,0.24340181943974898,0.0749057274932414
174,0.24553303117208955,0.07474520544673936
175,0.24766999009159402,0.07461081097846717
176,0.2498069490110985,0.07447641651019496
177,0.2519433403809351,0.07441012011583872
178,0.2540786265224708,0.07447643576016097
179,0.25621280743570585,0.07467536344316168
180,0.25834645067030815,0.07493880509092488
181,0.2604800939049104,0.07520224673868808
182,0.2626109634005338,0.07547494495851566
183,0.2647213072277148,0.07581614181161958
184,0.26681112538645324,0.07622583729799985
185,0.2688831916157279,0.07669477484559212
186,0.27095525784500246,0.07716371239318437
187,0.2730273240742771,0.07763264994077661
188,0.27505403412377166,0.07870974726728212
189,0.27702080922141403,0.08059048430163733
190,0.2789276493672041,0.08327486104384221
191,0.2808199107409221,0.0861547177149835
192,0.28271217211463995,0.08903457438612479
193,0.28458921120884273,0.09206483231199457
194,0.286426019992898,0.09549257926821825
195,0.288222598466806,0.09931781525479574
196,0.28999416891008184,0.10339013901699867
197,0.29176573935335764,0.10746246277920155
198,0.2935373097966334,0.11153478654140442
199,0.29530888023990914,0.11560711030360728
200,0.2950315132763845,0.12189914773701195
