,volume,pressure
0,0.42899975665883433,0.14853122335963923
1,0.4290617913310937,0.15420110981358243
2,0.4291224668712533,0.15987588693147856
3,0.42917624967005075,0.16557546670227904
4,0.42922313972748605,0.17129984912598392
5,0.4292590596472605,0.17706370619445208
6,0.42928119408431076,0.18287716856872904
7,0.4292895430386367,0.18874023624881484
8,0.4292895430386367,0.19463334657889747
9,0.4292895430386367,0.20052645690898008
10,0.4292895430386367,0.20641956723906268
11,0.42928591868637117,0.21234136946433607
12,0.4292776991731975,0.21829954891386924
13,0.4292648844991158,0.22429410558766216
14,0.429230712034898,0.23043328618120748
15,0.4291758613465938,0.23671136163101736
16,0.4290927601267912,0.24317011218057583
17,0.4289680112162232,0.24985900340243583
18,0.42880190585748246,0.2567760790310162
19,0.42858192061907996,0.26396224597695217
20,0.4283090910302346,0.27136584951335
21,0.4279834170909463,0.2789868896402097
22,0.42759580556026305,0.2867713245208507
23,0.42715764725959093,0.2946053647073005
24,0.4266689421889299,0.3024890101995591
25,0.4261375215379966,0.31028755813903586
26,0.4255785299216148,0.3179491954344804
27,0.4249919673397844,0.3254739220858927
28,0.4243679315443516,0.33281574921720336
29,0.4237117296225622,0.3400011227887648
30,0.42301831336947493,0.34701490946717506
31,0.4222941224824187,0.3539347501137627
32,0.42154006304945996,0.36076505187105573
33,0.42074300973775136,0.367529086137274
34,0.41989632868823556,0.3743153435804945
35,0.4190000199009124,0.3811238242007174
36,0.41805284074071947,0.3879444159236381
37,0.41707119787371594,0.39476150377971997
38,0.4160550912999017,0.401575087768963
39,0.4150012202698923,0.4083743163841608
40,0.41391748069398027,0.415156681820003
41,0.4128038725721657,0.4219221840764895
42,0.411646144433576,0.4286608442029669
43,0.41044981694335836,0.4353756937826563
44,0.40920741487496515,0.44205824845624386
45,0.40791513265851753,0.4486850343675485
46,0.40657460125253514,0.45525705759601187
47,0.40517145268910815,0.46176194879117805
48,0.403706269453422,0.4682076154505995
49,0.40217905154547673,0.47459405757427636
50,0.4005805956993409,0.4809024800264222
51,0.3989256193740356,0.4871387212469156
52,0.3972141225695609,0.49330278123575655
53,0.3954205536024449,0.49941032795021967
54,0.39355116448034544,0.505485749323778
55,0.3916059552032628,0.5115290453564316
56,0.38953745322857586,0.5175346022091791
57,0.3873586673920949,0.523508797485254
58,0.38504823990368386,0.5294411768788078
59,0.38257995892999375,0.535297563851443
60,0.3799600376463368,0.5410797252525503
61,0.37715158532429627,0.5467464213422031
62,0.3741708144682026,0.5522601892131037
63,0.3710177250780558,0.5576210288652524
64,0.3676730951427334,0.5627092920147162
65,0.36418371763880636,0.5674774155481462
66,0.3605495925662747,0.5719253994655425
67,0.35678256379057766,0.5758836651814033
68,0.352925929377173,0.5793764427245736
69,0.34897968932606066,0.5824037320950534
70,0.3449774336162731,0.5847742102367129
71,0.34094071419967487,0.5865721228940525
72,0.33686865734848775,0.5877272769714745
73,0.33278728073433217,0.5882883640039819
74,0.32869901137881435,0.5882957055045548
75,0.32460472300971277,0.5876476988822968
76,0.32051043464061113,0.5864693664452104
77,0.3164161462715095,0.5847607081932957
78,0.3123290418863628,0.5824485391866896
79,0.30825572298394033,0.5796662722213985
80,0.3041961895642421,0.5764139072974227
81,0.30017791551185247,0.5726615459087931
82,0.2962078906489976,0.5685265096496703
83,0.2922861149756776,0.5640087985200546
84,0.2884662742098257,0.559158348331199
85,0.2847429318230435,0.5540621908224024
86,0.28113084410669786,0.5487073802015212
87,0.27765787326882996,0.5432169116764994
88,0.2743158645168424,0.5376115492462054
89,0.2711306413606272,0.5318910804878614
90,0.26807638029029224,0.526128146581363
91,0.2651530813058377,0.52032274752671
92,0.26237608318381583,0.5144785556469442
93,0.25970936892358787,0.5086156554804164
94,0.257152938525154,0.5027340470271263
95,0.2547139759724689,0.4968366176640963
96,0.25236461905749147,0.4909298184099691
97,0.2501048677802216,0.48501364926474466
98,0.24794617768264154,0.47906080013987284
99,0.24587020048140693,0.47307033365809614
100,0.24388509096911526,0.46703736847101185
101,0.24199084914576652,0.4609511837109178
102,0.2401793202187632,0.4548154881313118
103,0.23846477507515096,0.4486102206944361
104,0.23682605008652213,0.4423206242376856
105,0.2352631452528766,0.4359466987610603
106,0.23378761319706082,0.42947100089646106
107,0.23238100855486626,0.4229093205017932
108,0.23104333132629296,0.4162616575770567
109,0.22978500152410425,0.4095001027332934
110,0.22859100397462878,0.40263669166160276
111,0.2274613386778664,0.3956714243619848
112,0.22640053607414912,0.38849779847575683
113,0.2253948754013288,0.38112492461119685
114,0.22444726908533316,0.3735073195935421
115,0.22354033965146047,0.3653290465314306
116,0.2226678739243984,0.3566125559012939
117,0.22183731477040652,0.34728129716782985
118,0.22104351690367927,0.3375168187636357
119,0.22028648032421672,0.32731912068871166
120,0.21958225573490897,0.31673976451444763
121,0.2189331730764983,0.30601324593295093
122,0.21833923234898456,0.29513956494422156
123,0.2178346060165857,0.2846352222394458
124,0.21741958532189443,0.2747906301019267
125,0.2170941702649108,0.2656057885316645
126,0.21685395984645517,0.2571515888671011
127,0.21667808168071268,0.24928934585185586
128,0.21656896278928978,0.24204962613563463
129,0.2165024623972749,0.23531898960360453
130,0.21647042571207065,0.22902239949740122
131,0.21647042571207065,0.2231292891673186
132,0.21647042571207065,0.21723617883723603
133,0.21647042571207065,0.2113430685071534
134,0.21647042571207065,0.2054499581770708
135,0.21647042571207065,0.19955684784698818
136,0.21647042571207065,0.19366373751690558
137,0.21647726991300065,0.18769099669767436
138,0.21649445322597383,0.1815979630118568
139,0.2165219756509902,0.17538463645945296
140,0.21664774391063293,0.16905755009946413
141,0.2168837960320696,0.16264538312405782
142,0.21724488830666708,0.15615026964114076
143,0.21788343769130608,0.14968105338829849
144,0.21878391124770583,0.14324971755080107
145,0.2200311576512253,0.1369672547943347
146,0.22167129031238592,0.13113101431148452
147,0.22370430923118756,0.12574099610225056
148,0.2261859388237128,0.12093718536572673
149,0.22901220548434426,0.11669496681860164
150,0.23218310921308188,0.1130143404608753
151,0.23566836078027809,0.10996708684261777
152,0.23934660910561373,0.10742129777035442
153,0.2432178541890888,0.10537697324408529
154,0.24720074226645752,0.10370938862998609
155,0.2512353259040421,0.10227866935112379
156,0.25532160510184254,0.10108865172052128
157,0.25941589347094407,0.10002612427776397
158,0.26351018184004565,0.09905438957654757
159,0.2676044702091473,0.09818084077640618
160,0.2716987585782489,0.09735419153812036
161,0.2757930469473505,0.09657444186169009
162,0.27988733531645205,0.09584335746734779
163,0.2839816236855537,0.09514203625649076
164,0.28807591205465527,0.09447047822911897
165,0.2921702004237569,0.09383798199825474
166,0.29626448879285844,0.09324066043878221
167,0.30035877716196,0.09267851355070134
168,0.30445306553106155,0.09215098240098894
169,0.3085473539001632,0.09164960677615755
170,0.3126416422692648,0.09117570779062563
171,0.3167359306383664,0.09075312901904183
172,0.320830219007468,0.09037744980931359
173,0.3249245073765695,0.09006279592329994
174,0.32901879574567117,0.08981668755076748
175,0.33311308411477275,0.08963912469171625
176,0.3372073724838743,0.08955848590009677
177,0.34130166085297586,0.08958156729335016
178,0.34539594922207745,0.08970836887147647
179,0.34949023759117903,0.08997108009540256
180,0.35358452596028067,0.09035645171187395
181,0.35767881432938226,0.0908644837208907
182,0.36177310269848384,0.0915289407582632
183,0.3658673910675854,0.09232778307864495
184,0.36996167943668706,0.09326252234180321
185,0.37405596780578865,0.09432919520448257
186,0.3781502561748902,0.09550319591063913
187,0.3822445445439917,0.09679673206562038
188,0.38633883291309334,0.09815520607547859
189,0.3904331212821949,0.09957861794021373
190,0.394512394477625,0.10107608843052257
191,0.3985549063857904,0.10262947762919764
192,0.4025606570066912,0.10423878553623897
193,0.40650848271191964,0.10667429807575218
194,0.41039657132534313,0.11041939068861716
195,0.41422492284696144,0.11547406337483379
196,0.417990980814016,0.12158317591233575
197,0.4217087895915357,0.12836241103558163
198,0.42537834917952044,0.13581176874457157
199,0.42903839484280815,0.1433932633014546
200,0.42899975665883433,0.14853122335963923
