,volume,pressure
0,0.5683870053435811,0.18177439371396045
1,0.5683870053435813,0.18965954133871893
2,0.5683870053435816,0.19754468896347738
3,0.5683870053435816,0.20542983658823571
4,0.5683999624029309,0.21338312746407234
5,0.5684289054445942,0.22142049118214818
6,0.5684166214792371,0.22958626976230367
7,0.5683274365252745,0.23782992634369132
8,0.5681567942541443,0.24623226401036474
9,0.5679609756788839,0.2548079640697333
10,0.5677301525177119,0.263623925481502
11,0.5674365614926109,0.2726594703853983
12,0.5671633944321897,0.28199307297787934
13,0.5670515387849744,0.29172132220852504
14,0.5671019117339873,0.3017556431626738
15,0.5671763930976236,0.31193388937029587
16,0.5671834827744532,0.3220240038172959
17,0.5672042774955767,0.33187897114905796
18,0.5672570349355316,0.3414363864935422
19,0.5671073547344432,0.35024354404479907
20,0.5667038727939033,0.35845546121522653
21,0.5661086561464593,0.3660778670683125
22,0.5655392630089073,0.37361443012458573
23,0.5648037645126146,0.3810475672826914
24,0.563869319588073,0.3884576318186789
25,0.5627704243023813,0.39619600629313145
26,0.5617031172807588,0.4043404988406535
27,0.5606417580800864,0.41298626581225495
28,0.5595415988940001,0.42181030912938056
29,0.5584397754645265,0.43082122571424397
30,0.5573909415445024,0.43995597790277574
31,0.5564498442693102,0.44911829413950494
32,0.5556062392963218,0.4581944980938566
33,0.5548412762954377,0.4669694258369651
34,0.5541123626554804,0.4753149466310377
35,0.5533979140642972,0.4831599196139608
36,0.552713036304366,0.4904994487986101
37,0.5520078039232293,0.4974408679565401
38,0.5511565295619647,0.503892482129106
39,0.5501353119117923,0.5101052156469182
40,0.5489641366866338,0.5164157990405951
41,0.5477573605216832,0.5230695772914622
42,0.5465172772990763,0.530286201096689
43,0.5452725388178835,0.537818345920493
44,0.5440814953004203,0.5457007388039228
45,0.5429488621029507,0.5536517174270741
46,0.5418621999307347,0.5614718541545719
47,0.5407626260035728,0.5690750134151626
48,0.5395199359706421,0.5762256593810968
49,0.5381175764098753,0.5830711630009057
50,0.5364957094502849,0.5898033447649786
51,0.5347615821297463,0.5967231356647797
52,0.5328887290990475,0.6039926896525586
53,0.5309060836562045,0.6115031025699396
54,0.5288852141505571,0.6193127194027307
55,0.526922902736009,0.6274174771378016
56,0.5250668683912211,0.6355861226111605
57,0.5232883461821936,0.6434846714640179
58,0.5215633870064905,0.6508792935286833
59,0.5199100628403811,0.6576978524075767
60,0.5182681318556187,0.6640571996829983
61,0.5165001001989635,0.6698081227937636
62,0.5145424204435906,0.6752378512847705
63,0.5122768304457705,0.680698361935802
64,0.5098080480654188,0.6864967900716974
65,0.5069464935774534,0.6930422417475068
66,0.5038508248514568,0.700076132810415
67,0.5005345521299012,0.7074658420690524
68,0.49721696188233044,0.7147504602748905
69,0.4939253263638419,0.7215543084489187
70,0.49066486447100616,0.7279248439460007
71,0.48756492952109587,0.7332730740741482
72,0.4846349458257026,0.7378065894543573
73,0.48181694259577856,0.741687385119249
74,0.4789566722067171,0.7455574708869493
75,0.4759480178061285,0.7495742999164016
76,0.4727966609360208,0.7536227855515985
77,0.46935766093288345,0.757622795493258
78,0.4655269471102349,0.761553883574015
79,0.46126162267018955,0.7652043494829184
80,0.4565946995872494,0.7682759666067664
81,0.4516528907925441,0.7706083491796962
82,0.44642097898506417,0.7719848513853009
83,0.44103314037407265,0.7726028235005253
84,0.4355260715262581,0.7721613195043222
85,0.4300082262046607,0.7710198319798971
86,0.42449751508195954,0.7687273204783431
87,0.4190044079559767,0.7657641613327506
88,0.4135449684737176,0.7616469026018109
89,0.40810397435566703,0.7569578949086567
90,0.4027408390907491,0.7512871806410315
91,0.3974422626005609,0.7451609042019423
92,0.3923156163209688,0.7383256003536746
93,0.38732284455318466,0.7311519287970534
94,0.38258830788431963,0.7235745077771114
95,0.3780507482890285,0.7158114634265929
96,0.37380685830810956,0.7078952232973744
97,0.36979353537979687,0.6999141984552816
98,0.36606058198745334,0.6918979874485855
99,0.3625688745427842,0.6838607504582894
100,0.3593233641698665,0.6757976707802642
101,0.3563139544588175,0.6676959199741054
102,0.3535108415843109,0.6595426665950422
103,0.3509318884253698,0.6513217279794616
104,0.348520399757269,0.6430478101283748
105,0.3463084122652127,0.6347276750963012
106,0.3442210766028603,0.6263843648971221
107,0.3422982930054205,0.6179797946035394
108,0.3404632705092674,0.6095185857636058
109,0.3387618312823296,0.600931356158042
110,0.3371249508301216,0.5922600537102392
111,0.33558398627179775,0.5833469292780977
112,0.33407991244189095,0.574266335185794
113,0.33263719371819345,0.5648962004610616
114,0.3312229196877227,0.5553844836025432
115,0.32985087583320305,0.5456442330041652
116,0.32850048101141227,0.5357733923626923
117,0.32719416090199344,0.5257429452912618
118,0.32592861475556184,0.5156235955234817
119,0.32472430721830237,0.5053408661655662
120,0.3235718408625552,0.49487402297598304
121,0.32247393395251955,0.4841393251083582
122,0.3214199270093001,0.47313401888599727
123,0.3204049465735113,0.46184368593290026
124,0.31943132258589524,0.45025674701993706
125,0.3184946864075605,0.438504574696435
126,0.31760387239715415,0.42673235530850095
127,0.3167548031583776,0.41511435951499265
128,0.3159812628319917,0.40382910120796894
129,0.3152688834500865,0.39285402743994385
130,0.31464572138243196,0.38242377363628055
131,0.31406995419270684,0.3723336552634414
132,0.31357505536290636,0.36265907797558605
133,0.3131207363343646,0.35310622931352026
134,0.31273163623042954,0.3436484654058058
135,0.31237020417280714,0.3341663646227064
136,0.31205197309977833,0.32468601050530443
137,0.3117539348465147,0.3152350935271241
138,0.3114881274401837,0.30557869879629074
139,0.311243677823989,0.2956108153494047
140,0.31102971159917037,0.285208151877099
141,0.3108388506200445,0.2745441406386966
142,0.31067929821964096,0.263478384645433
143,0.3105492098615389,0.25195468783960084
144,0.31046414622140894,0.24017881209814002
145,0.31043670700856196,0.2285365329936613
146,0.31050653357590213,0.21724059440811933
147,0.31073708907126263,0.20621364932665392
148,0.3111963023622324,0.19538927512268678
149,0.31208218605160404,0.18499213111398505
150,0.3133946569272082,0.175028244461649
151,0.31543191966664735,0.16572628906222836
152,0.3179870302276172,0.15689375525607657
153,0.32141946518176023,0.14922369882025308
154,0.32533762806006045,0.14238841732325716
155,0.32996982069495817,0.13710103266111523
156,0.3348740824519312,0.13260540097379375
157,0.34014236277812426,0.12934850565771897
158,0.3455162740189745,0.12659951426184313
159,0.35099049290709194,0.12450983898982865
160,0.35647245514985837,0.12267243305662506
161,0.36195134316525657,0.12110308208579665
162,0.3674296163351812,0.11967061296548107
163,0.3729078895051058,0.11837168225995773
164,0.3783861626750305,0.11716126198613058
165,0.3838644358449552,0.11604625835430896
166,0.3893427090148799,0.11502338551581104
167,0.3948209821848045,0.11410080304590733
168,0.4002992553547292,0.11328634870994583
169,0.4057775285246539,0.11256824257102856
170,0.4112558016945785,0.11195942477551071
171,0.41673407486450303,0.11142766351905461
172,0.42221234803442775,0.11098821513258883
173,0.42769062120435236,0.11060373696208634
174,0.4331688943742772,0.11030793436258232
175,0.43864716754420185,0.11006790226950658
176,0.4441254407141264,0.10996477912672664
177,0.44960371388405107,0.10995377407424714
178,0.4550819870539756,0.1101483843905059
179,0.4605602602239004,0.11046689152690672
180,0.46603853339382517,0.11104511620808664
181,0.47151680656374984,0.11178915768614847
182,0.47699507973367444,0.11279981021627553
183,0.48247335290359894,0.11397553429925358
184,0.4879516260735236,0.11535661122182264
185,0.49342989924344827,0.11686811008414552
186,0.49890817241337293,0.11849495663196025
187,0.5043864455832976,0.12018797746224871
188,0.5098647187532221,0.12191440724369645
189,0.5153429919231469,0.12365461557103423
190,0.5208212650930716,0.1253952388637983
191,0.5262995382629962,0.12713865682167835
192,0.5317716159086747,0.12889558232761902
193,0.5372218944875614,0.13069071005882701
194,0.5426370297935877,0.13292424452859394
195,0.5479661338028177,0.13730643186674124
196,0.5532204414189055,0.14391293763128435
197,0.5583715520762899,0.15331220940983817
198,0.5634765493231529,0.16378371162374522
199,0.5685398017983863,0.17522586454755093
200,0.5683870053435811,0.18177439371396045
