,volume,pressure
0,0.37817122564156913,0.1269530550660775
1,0.37817122564156924,0.13173025561534646
2,0.37817122564156924,0.1365074561646153
3,0.37817122564156924,0.14127825227299334
4,0.37817122564156924,0.146034702433776
5,0.37817122564156924,0.15077680664696322
6,0.37817122564156924,0.15551096935344583
7,0.37817122564156924,0.16021951429636527
8,0.37817122564156924,0.1648993673440939
9,0.37817122564156924,0.16955052849663171
10,0.37817122564156924,0.17419861551754195
11,0.37817122564156924,0.17884670253845217
12,0.37817122564156924,0.1834947895593624
13,0.37817122564156924,0.18814287658027262
14,0.37817122564156924,0.19279096360118292
15,0.37817122564156924,0.1974390506220931
16,0.37817122564156924,0.20208713764300332
17,0.3781722352825575,0.20674927251389655
18,0.3781775941462644,0.2114719212001013
19,0.3781873022326899,0.21625508370161758
20,0.37820034990084583,0.22108471216846237
21,0.3782074950524551,0.22600319235489474
22,0.378205941758627,0.23105261191756155
23,0.3781956900193617,0.23623297085646272
24,0.3781799240870066,0.2414792186832485
25,0.37814241204105836,0.2469158763599369
26,0.3780831538815169,0.25254294388652787
27,0.3780048678725815,0.25833662003178365
28,0.3779011966045128,0.2641972464673283
29,0.3777531011329608,0.2701750359108784
30,0.3775605814579257,0.276269988362434
31,0.3773481685269352,0.2824155726760239
32,0.3770879141460397,0.2885846290714047
33,0.3767798183152392,0.29477715754857625
34,0.3764247353461391,0.300992738963221
35,0.37604441135233274,0.30717259524213303
36,0.37560972207454335,0.3132755050748515
37,0.375120667512771,0.31930146846137647
38,0.37460248869172214,0.32528621053744067
39,0.3740394668326042,0.3311619446094098
40,0.373427205559136,0.3369179836180588
41,0.37276570487131755,0.3425543275633876
42,0.3720811682812808,0.34813602392361936
43,0.3713444410186204,0.3535946308114092
44,0.3705555230833364,0.35893014822675706
45,0.3697330540013658,0.36418653669553513
46,0.36886252989158885,0.3693735575837557
47,0.3679322039694307,0.37447425437172677
48,0.3669420762348912,0.3794886270594485
49,0.3659176789552696,0.38448218304083726
50,0.36480319063361916,0.38946029827566137
51,0.3635986112699398,0.3944229727639208
52,0.36232646362473886,0.3993740666922567
53,0.3609748067517128,0.4043122351280821
54,0.3595089827823225,0.4092318438823539
55,0.35792899171656806,0.41413289295507216
56,0.35629414996250935,0.419019080201347
57,0.35451795847009504,0.42384067398581976
58,0.352600417239325,0.4285976743084905
59,0.35056171908996436,0.4332993088067595
60,0.3484365218905524,0.4378935117201947
61,0.3461645384243864,0.44230540648966965
62,0.34374576869146645,0.4465349931151843
63,0.3412620518603597,0.45067920098734204
64,0.3386478583476939,0.45452934742104983
65,0.33590318815346903,0.4580854324163077
66,0.33303270115916933,0.46135795816734604
67,0.33012289641484627,0.46443040585797324
68,0.3271315437445488,0.46708787683071107
69,0.3240586431482768,0.4693303710855593
70,0.3209435123760538,0.4713579666829291
71,0.3177980923741832,0.47295056963046606
72,0.3146200532019228,0.4740747189551062
73,0.31140939485927266,0.4747304146568495
74,0.308194367877731,0.4751767010807331
75,0.3049739043677911,0.47515379202516184
76,0.30174800432945287,0.4746616874901357
77,0.29851870646086565,0.4738763357804503
78,0.29529387431203424,0.472746165585731
79,0.29207447869160114,0.47119621636575326
80,0.2888605195995663,0.46922648812051704
81,0.2856548123809932,0.4670861455699497
82,0.28247628780441153,0.4645886956296522
83,0.2793249458698213,0.4617341382996245
84,0.27619350551240346,0.45861812734497304
85,0.27310866396982814,0.45531207916243444
86,0.2700890607680323,0.4517399788608537
87,0.2671346959070161,0.44790182644023113
88,0.2642155713997245,0.4439607007725029
89,0.2613997409320005,0.43985183422330376
90,0.2586872045038441,0.43557522679263394
91,0.2560613612874677,0.43115783683644376
92,0.25351143530693887,0.42668397559037574
93,0.2510865494795708,0.4221171028080385
94,0.24878670380536355,0.4174572184894318
95,0.24654297087069588,0.4127568432842015
96,0.24442971461758728,0.4079827227946377
97,0.2424469350460377,0.4031348570207406
98,0.24058764233382085,0.39821719660274224
99,0.23879358796238356,0.3932561070888415
100,0.23713001027250533,0.3882081593831358
101,0.23559690926418617,0.3830733534856252
102,0.23412904659664652,0.37789511849221213
103,0.2327795255026341,0.3726076470260778
104,0.2315550445617824,0.3672047558906534
105,0.23045560377409158,0.36168644508593867
106,0.22940344136729302,0.3559949232662226
107,0.228454573000062,0.349878239726861
108,0.22760899867239864,0.3433363944678538
109,0.22682613858304418,0.33653641530763323
110,0.22611628330360967,0.3294474677744197
111,0.22549341247854787,0.3220142174989164
112,0.22495752610785882,0.3142366644811236
113,0.2244542589075595,0.3063372640642736
114,0.22401623004803972,0.29820506804326186
115,0.2236434395292995,0.28984007641808845
116,0.2233172478254018,0.2813088022185138
117,0.22303483959128323,0.2731308202673519
118,0.2228122331695459,0.265435383826217
119,0.22264942856018982,0.2582224928951094
120,0.22250846714529118,0.2512171058488638
121,0.22240012490078231,0.24464992229280502
122,0.2223244018266632,0.2385209422269331
123,0.22227547307107853,0.23275191502800036
124,0.2222367378062407,0.2272164170328223
125,0.2222143121265977,0.22205456576365173
126,0.22220819603214959,0.2172663612204887
127,0.22220819603214959,0.2126182741995784
128,0.22220819603214959,0.20797018717866816
129,0.22220819603214959,0.20332210015775792
130,0.22220819603214959,0.19867401313684774
131,0.22220819603214959,0.19402592611593752
132,0.22220819603214959,0.1893778390950273
133,0.22220819603214959,0.18472975207411704
134,0.22220819603214959,0.18008166505320677
135,0.22220819603214959,0.17543735083020315
136,0.22220819603214959,0.1707969491383619
137,0.22220819603214959,0.16616045997768308
138,0.2222171274716611,0.16150161349607628
139,0.22224780502476577,0.15678799157819615
140,0.2223002286914636,0.15201959422404265
141,0.22236546703224314,0.1472189184877995
142,0.22252856288419198,0.14242251096736988
143,0.22280582583250502,0.13763108303205596
144,0.2231972558771823,0.13284463468185786
145,0.22367596161882503,0.12809215421584225
146,0.22438843808159442,0.1234492246223734
147,0.2253346852654905,0.11891584590145124
148,0.22644373705874266,0.11445876153819548
149,0.2277852004410219,0.11027697709491102
150,0.22943654594200402,0.10646225921158825
151,0.2313977735616889,0.10301460788822717
152,0.23348452673885584,0.09973445862949976
153,0.23581592369394605,0.0968398715325926
154,0.23839196442695954,0.09433084659750562
155,0.24116459391008993,0.09213164839959563
156,0.2440176063488237,0.09013801052398976
157,0.24699565894071823,0.08846413314974587
158,0.25009875168577356,0.08711001627686395
159,0.25324892864999277,0.08588280260629436
160,0.25642628825620334,0.08479786279617502
161,0.25963083050440544,0.08385519684650597
162,0.26286012837299255,0.08304210173403268
163,0.2660894262415797,0.082277405140159
164,0.2693187241101669,0.08160305244767121
165,0.27254802197875405,0.08101904365656938
166,0.2757773198473413,0.08047698024825385
167,0.2790066177159284,0.08001246879690699
168,0.28223591558451555,0.07962691933811
169,0.2854652134531027,0.07932033187186294
170,0.2886945113216899,0.07905448300119303
171,0.29192380919027705,0.07888040077051352
172,0.2951531070588642,0.07879808517982444
173,0.2983824049274514,0.07876820766912987
174,0.30161170279603855,0.07882298310540324
175,0.3048410006646257,0.07897450476678276
176,0.3080702985332128,0.07922277265326848
177,0.31129959640179994,0.07951354485556371
178,0.31452889427038716,0.07989892917505836
179,0.3177581921389743,0.08037892561175244
180,0.32098749000756155,0.08092312312797473
181,0.3242167878761487,0.08152631348419084
182,0.3274460857447359,0.0822063317250501
183,0.33067538361332305,0.0829631778505525
184,0.3339046814819102,0.08375218803093527
185,0.3371339793504974,0.08460806692572967
186,0.34036327721908455,0.08553081453493569
187,0.3435925750876717,0.08650610184832226
188,0.3467931370204393,0.08749219943449842
189,0.3499502067260205,0.08849465851462635
190,0.3530637842044154,0.08951347908870608
191,0.35615328562847504,0.09063264084347301
192,0.3591558025981618,0.09263650888713985
193,0.362071335113476,0.09552508321970661
194,0.36490920293738593,0.09920357388164826
195,0.3677109566797929,0.10311512479406948
196,0.37044747208142037,0.10744768777187313
197,0.3731187491422683,0.11220126281505916
198,0.3757609019438396,0.11714278967314805
199,0.37840305474541097,0.12208431653123691
200,0.37817122564156913,0.1269530550660775
