,volume,pressure
0,0.35976979052414415,0.10882294459262087
1,0.3597890125352668,0.11222600830435875
2,0.3598082345463893,0.11562907201609661
3,0.3598274565575119,0.11903213572783447
4,0.3598456592195598,0.12244840423224534
5,0.35986172610259404,0.12589233992130452
6,0.3598756572066147,0.12936394279501198
7,0.35988847188069634,0.13285000806069466
8,0.35990128655477804,0.13633607332637734
9,0.359910023832561,0.13987495776275213
10,0.35991448955231675,0.14346917656842353
11,0.3599146837140452,0.14711872974339146
12,0.3599146837140452,0.15077079811696378
13,0.3599146837140452,0.1544228664905361
14,0.3599146837140452,0.15807493486410842
15,0.3599146837140452,0.16172700323768074
16,0.3599146837140452,0.16537907161125304
17,0.3599146837140452,0.16903113998482538
18,0.3599146837140452,0.1726832083583977
19,0.3599146837140452,0.17633527673197003
20,0.3599146837140452,0.17998734510554235
21,0.3599146837140452,0.1836394134791146
22,0.3599108328397631,0.18732394654578433
23,0.35989701499675086,0.19109250587694138
24,0.3598732301850083,0.19494509147258582
25,0.3598433292788177,0.19884923863962023
26,0.35981342837262703,0.2027533858066546
27,0.35976139302938626,0.20677434997553729
28,0.359683728337982,0.2109305759360337
29,0.35958043429841435,0.2152220636881439
30,0.35947364534773363,0.21953199623001968
31,0.35935229426741455,0.22388699274689072
32,0.3591882276068231,0.22837417692374795
33,0.35898144536595944,0.2329935487605914
34,0.3587465096744617,0.23770004428242575
35,0.3585115739829639,0.24240653980426013
36,0.3582405242099632,0.2470929137372594
37,0.35792533500401447,0.25175469461723793
38,0.35756600636511765,0.25639188244419575
39,0.3571986523747757,0.26102459880696804
40,0.35681867787208055,0.26562507172096467
41,0.35639598778911313,0.2701164129621819
42,0.3559305821258734,0.2744986225306199
43,0.3554350813947146,0.27880394387505425
44,0.3549395806635557,0.28310926521948865
45,0.3544077716891653,0.2873452229757442
46,0.35382897557647547,0.2914914160884743
47,0.353203192325486,0.29554784455767885
48,0.35256673017942847,0.2995838719715367
49,0.35191602950661355,0.3036122140563255
50,0.3512083747267688,0.30760981482483846
51,0.35044376583989434,0.31157667427707564
52,0.3496364413727475,0.31552047774210595
53,0.3488291169056007,0.3194642812071362
54,0.347968980448299,0.32339094405945507
55,0.34703622750453444,0.32729403856929573
56,0.3460308580743069,0.33117356473665827
57,0.34500568414777133,0.335046663174254
58,0.34396041448233483,0.33890475044926993
59,0.342816898982272,0.34268944981834004
60,0.34157513764758296,0.3464007612814643
61,0.34025522621716836,0.3500536960012226
62,0.33893531478675376,0.35370663072098085
63,0.33752803057850944,0.3572687388244696
64,0.33599259962944816,0.36069763455742954
65,0.3343290219395699,0.3639933179198607
66,0.33262467028670445,0.36724661552803284
67,0.3308992520862956,0.37046150660398025
68,0.3290414155870426,0.37343498519165824
69,0.3270511607889454,0.37616705129106687
70,0.3249495542395474,0.3786961114344309
71,0.3228479476901494,0.38122517157779484
72,0.32068653932837016,0.3835085959010913
73,0.3184311566899918,0.3854060210785677
74,0.3160817997750143,0.38691744711022397
75,0.3136982703958191,0.38828850981612734
76,0.311309886973411,0.3896042508557575
77,0.30887878797073065,0.3904331612321825
78,0.30640497338777795,0.3907752409454026
79,0.3038932972677657,0.39068581166169114
80,0.30138162114775346,0.39059638237797945
81,0.29887751733515316,0.39022247312282465
82,0.2963862281966345,0.3893671362236891
83,0.29390775373219763,0.38803037168057286
84,0.2914345216344304,0.386496659464919
85,0.2889662406607403,0.38493686159101204
86,0.28657057617351306,0.38299447406272646
87,0.28424752817274884,0.380669496880062
88,0.28199214553437046,0.37798801570127216
89,0.27973676289599214,0.3753065345224823
90,0.2775559383613619,0.372496600372543
91,0.275511803683603,0.3694511691088298
92,0.2736043588627155,0.3661702407313428
93,0.2717590457949514,0.3627822682112313
94,0.26991742180002903,0.35939133071139573
95,0.26823811701014144,0.35586993410370127
96,0.26672113142528864,0.3522180783881479
97,0.265362775972629,0.3484387285444597
98,0.26400442051996925,0.3446593787007714
99,0.26271355568413984,0.3408073116707652
100,0.26155767208197095,0.336809810268123
101,0.26053676971346257,0.3326668744928448
102,0.25958335796178444,0.3284512215312486
103,0.2586299462101064,0.3242355685696524
104,0.2577572410169125,0.3198225445014101
105,0.25696711927891175,0.3152075593007859
106,0.25625958099610413,0.31039061296777964
107,0.25555391961000545,0.3055690766090373
108,0.25487349924861313,0.30066111264393025
109,0.2542486091415749,0.29556300794482065
110,0.2536792492888905,0.29027476251170853
111,0.2531401786658539,0.28488280395095866
112,0.25260110804281727,0.2794908453902088
113,0.25210900514190737,0.2741040429865979
114,0.25166730662571873,0.2687227740199166
115,0.25127601249425147,0.26334703849016505
116,0.2508881550253788,0.25797168024020417
117,0.25052359696392745,0.25267010114930527
118,0.2502159930095058,0.24754887111389146
119,0.24996534316211394,0.24260799013396264
120,0.2497483480143306,0.23777367905045688
121,0.2495313528665472,0.23293936796695108
122,0.2493522192558234,0.22830830666696417
123,0.2492158012253719,0.22390655281504973
124,0.2491220987751927,0.21973410641120783
125,0.24903325036822627,0.21558771767191967
126,0.24895154711286904,0.21140511007272828
127,0.24888949302443708,0.20712290060880317
128,0.24884708810293038,0.20274108928014423
129,0.2488171871967398,0.19829589494665462
130,0.24878728629054914,0.19385070061316506
131,0.24875858271501772,0.1892452322352737
132,0.24873130299216195,0.18444916769647193
133,0.24870544712198198,0.17946250699675986
134,0.2486798177738186,0.1744455241805393
135,0.24865282929355564,0.1693561595378147
136,0.24862156925526546,0.1640393091546487
137,0.248586037658948,0.15849497303104135
138,0.2485475936367029,0.15279553299349666
139,0.2485091496144578,0.14709609295595194
140,0.24849109257370633,0.14155641460753787
141,0.24849866488111821,0.13621757952545943
142,0.24853186653669354,0.13107958770971664
143,0.24857031055893858,0.1259826774711788
144,0.24863671387008923,0.12095482086705242
145,0.24880563457389338,0.11618016092243447
146,0.24907707267035112,0.111658697637325
147,0.24942306887055687,0.10732137737731257
148,0.24976906507076263,0.10298405711730013
149,0.2502624300229079,0.09891250950981809
150,0.2509522866443058,0.09519532543904324
151,0.2518386349349564,0.09183250490497563
152,0.25277410614292006,0.0885582752550848
153,0.2537649134435094,0.08535141397185363
154,0.2549991995516508,0.08244097350192484
155,0.25647696446734447,0.07982695384529843
156,0.2581428720979648,0.07744198663531482
157,0.25980877972858524,0.0750570194253312
158,0.2616040961512578,0.07290005877974239
159,0.2635830895691014,0.07106672035458488
160,0.265745759982116,0.06955700414985871
161,0.2679626985982493,0.06814290360116912
162,0.2701959467995774,0.06677585505061412
163,0.2725188977194774,0.06566759248979956
164,0.2749315513579493,0.06481811591872542
165,0.27741759812979816,0.06418037333925711
166,0.27990364490164704,0.06354263075978878
167,0.28240095305374946,0.06300226532224829
168,0.2849153474379608,0.06260964451383964
169,0.2874468280542811,0.062364768334562865
170,0.2899841335224568,0.06217025964249014
171,0.2925214389906324,0.061989012906695104
172,0.295058744458808,0.061905020516936415
173,0.29759604992698363,0.06191828247321411
174,0.3001333553951593,0.06201553681925047
175,0.30267066086333494,0.06211279116528684
176,0.3052079663315106,0.06226286468201536
177,0.3077452717996862,0.0624990138843163
178,0.31028257726786185,0.06282123877218965
179,0.3128198827360375,0.06317672017494325
180,0.3153571882042131,0.06353819740467297
181,0.3178944936723887,0.06396562873113998
182,0.3204317991405643,0.0644590141543443
183,0.32296910460873995,0.06501235784730978
184,0.3255064100769156,0.0655657015402753
185,0.3280255128830434,0.06615389915329531
186,0.3305125790039669,0.06680343966561123
187,0.3329676084396862,0.06751432307722305
188,0.33540880385224914,0.06825169546807631
189,0.33784718391974866,0.06902591297787923
190,0.34022362639585335,0.07061072310457428
191,0.3425381312805631,0.07300612584816146
192,0.3447935139189414,0.07617527608969116
193,0.34704889655731974,0.07934442633122085
194,0.34927971773704153,0.08272875943516997
195,0.3514635517784637,0.08652474671070402
196,0.3536003986815863,0.09073238815782304
197,0.35571481990506604,0.09513650091410758
198,0.35782924112854575,0.0995406136703921
199,0.35994366235202524,0.10394472642667658
200,0.35976979052414415,0.10882294459262087
